#  zr
    1    4.27640404e-01
    2    1.12138876e+00
    3    1.03124123e+00
    4    1.00067579e+00
    5    1.00000026e+00
    6    1.00000000e+00
    7    1.00000000e+00
    8    1.00000000e+00
    9    1.00000000e+00
   10    1.07747359e+00
   11    1.22098328e+00
   12    1.02713021e+00
   13    1.00036241e+00
   14    1.00000010e+00
   15    1.00000000e+00
   16    1.00000000e+00
   17    1.00000000e+00
   18    1.00000000e+00
   19    1.02038960e+00
   20    1.02423190e+00
   21    1.00311280e+00
   22    1.00001432e+00
   23    1.00000000e+00
   24    1.00000000e+00
   25    1.00000000e+00
   26    1.00000000e+00
   27    1.00000000e+00
   28    1.00044018e+00
   29    1.00030392e+00
   30    1.00001326e+00
   31    1.00000001e+00
   32    1.00000000e+00
   33    1.00000000e+00
   34    1.00000000e+00
   35    1.00000000e+00
   36    1.00000000e+00
   37    1.00000017e+00
   38    1.00000008e+00
   39    1.00000000e+00
   40    1.00000000e+00
   41    1.00000000e+00
   42    1.00000000e+00
   43    1.00000000e+00
   44    1.00000000e+00
   45    1.00000000e+00
   46    1.00000000e+00
   47    1.00000000e+00
   48    1.00000000e+00
   49    1.00000000e+00
   50    1.00000000e+00
   51    1.00000000e+00
   52    1.00000000e+00
   53    1.00000000e+00
   54    1.00000000e+00
   55    1.00000000e+00
   56    1.00000000e+00
   57    1.00000000e+00
   58    1.00000000e+00
   59    1.00000000e+00
   60    1.00000000e+00
   61    1.00000000e+00
   62    1.00000000e+00
   63    1.00000000e+00
   64    1.00000000e+00
   65    1.00000000e+00
   66    1.00000000e+00
   67    1.00000000e+00
   68    1.00000000e+00
   69    1.00000000e+00
   70    1.00000000e+00
   71    1.00000000e+00
   72    1.00000000e+00
   73    1.00000000e+00
   74    1.00000000e+00
   75    1.00000000e+00
   76    1.00000000e+00
   77    1.00000000e+00
   78    1.00000000e+00
   79    1.00000000e+00
   80    1.00000000e+00
   81    1.00000000e+00
#  ze
    1    2.35818234e+01
    2    1.31597587e+00
    3    1.98658837e-02
    4    5.25909198e-07
    5    3.25846889e-14
    6    3.05887358e-22
    7    1.64136535e-30
    8    3.89527511e-39
    9    2.94542204e-48
   10    8.52815268e-01
   11    6.74377491e-01
   12    4.44517848e-03
   13    5.04137101e-08
   14    2.48474234e-15
   15    2.78415033e-23
   16    1.64317549e-31
   17    4.09649256e-40
   18    3.45635906e-49
   19    5.18536611e-03
   20    3.26958503e-03
   21    1.33683034e-05
   22    5.77153713e-11
   23    1.22141640e-18
   24    1.04399205e-26
   25    4.88255776e-35
   26    8.78022909e-44
   27    4.94499123e-53
   28   -2.63599117e-08
   29    3.42991805e-08
   30    4.99214381e-11
   31    3.40373100e-17
   32    2.02563356e-24
   33    7.85747621e-32
   34    8.93044091e-40
   35    1.55506283e-48
   36    6.04791407e-58
   37   -2.36291707e-15
   38    1.66842147e-15
   39    9.88411588e-19
   40    1.41410991e-24
   41    5.78013762e-31
   42    6.17547842e-38
   43    3.78141828e-46
   44    9.37736297e-55
   45    8.90115791e-64
   46   -1.79667171e-23
   47    1.87611417e-23
   48    7.66975164e-27
   49    4.88889690e-32
   50    4.09758290e-38
   51    1.09690072e-45
   52    6.55187454e-54
   53    1.08027791e-62
   54    1.53968537e-72
   55   -8.09382528e-32
   56    1.11407992e-31
   57    3.14493384e-35
   58    4.83344378e-40
   59    2.50011422e-46
   60    5.48241282e-54
   61    1.86070063e-62
   62    5.36132046e-72
   63    0.00000000e+00
   64   -1.65547568e-40
   65    2.73765775e-40
   66    6.94044811e-44
   67    7.90024133e-49
   68    5.50763437e-55
   69    6.24907993e-63
   70    4.59367255e-72
   71    0.00000000e+00
   72    0.00000000e+00
   73   -6.53261941e-50
   74    2.34847161e-49
   75    2.65448728e-53
   76    3.26239998e-58
   77    2.98230794e-64
   78    9.62968101e-73
   79    0.00000000e+00
   80    0.00000000e+00
   81    0.00000000e+00
#  zp
    1    7.21829085e+00
    2    9.24016097e-01
    3    9.37278630e-03
    4    1.33125494e-06
    5    4.56024522e-10
    6    4.28311932e-14
    7    4.09928501e-18
    8    6.00618585e-41
    9    1.07116771e-50
   10    5.78712657e-01
   11    4.94632456e-01
   12    2.00233714e-03
   13    6.73884011e-07
   14    1.73008103e-10
   15    1.78055550e-14
   16    1.36642834e-18
   17    6.91648889e-42
   18    1.69991341e-51
   19    2.26400441e-03
   20    1.49037046e-03
   21    8.63910613e-06
   22    2.70732126e-08
   23    3.76070545e-12
   24    3.29433450e-16
   25    1.52839955e-36
   26    1.01139620e-45
   27    1.74891329e-55
   28    7.96018612e-07
   29    5.62958200e-07
   30    2.50654626e-08
   31    1.83868942e-11
   32    4.91853472e-15
   33    5.43602994e-33
   34    2.91235610e-41
   35    1.24683499e-50
   36    1.89047299e-60
   37    2.89594076e-10
   38    1.40793883e-10
   39    3.34622295e-12
   40    4.07547012e-15
   41    2.89487145e-32
   42    4.73364780e-39
   43    1.50819879e-47
   44    1.79791585e-56
   45    1.60908324e-66
   46    2.59070543e-14
   47    1.43677662e-14
   48    2.80664381e-16
   49    3.51594433e-33
   50    3.26318023e-39
   51    4.60145305e-47
   52    1.14720813e-55
   53    2.17938248e-65
   54    0.00000000e+00
   55    1.11022302e-18
   56    2.96059473e-18
   57    9.32476250e-37
   58    1.47544211e-41
   59    9.68590063e-48
   60    7.99677466e-56
   61    4.08581332e-65
   62    0.00000000e+00
   63    0.00000000e+00
   64   -5.17882668e-43
   65    4.73615017e-42
   66    5.48041484e-46
   67    6.73811116e-51
   68    6.04511808e-57
   69    1.46624101e-65
   70    0.00000000e+00
   71    0.00000000e+00
   72    0.00000000e+00
   73    5.07217959e-52
   74    1.16238207e-51
   75    9.42319030e-56
   76    1.10327339e-60
   77    7.13890453e-67
   78    0.00000000e+00
   79    0.00000000e+00
   80    0.00000000e+00
   81    0.00000000e+00
